# alpha = 1.81, nu_ref = 96.54 GHz, nu_shift = 0.08 GHz
# solid angle = 487.78 nsr
    0  7.76332e-08
    1  7.76213e-08
    2  7.76093e-08
    3  7.75973e-08
    4  7.75854e-08
    5  7.75734e-08
    6  7.75614e-08
    7  7.75494e-08
    8  7.75375e-08
    9  7.75255e-08
   10  7.75135e-08
   11  7.75016e-08
   12  7.74896e-08
   13  7.74777e-08
   14  7.74657e-08
   15  7.74538e-08
   16  7.74417e-08
   17  7.74298e-08
   18  7.74178e-08
   19  7.74058e-08
   20  7.73938e-08
   21  7.73819e-08
   22  7.73699e-08
   23  7.73579e-08
   24  7.73460e-08
   25  7.73340e-08
   26  7.73220e-08
   27  7.73101e-08
   28  7.72980e-08
   29  7.72861e-08
   30  7.72741e-08
   31  7.72621e-08
   32  7.72501e-08
   33  7.72381e-08
   34  7.72261e-08
   35  7.72142e-08
   36  7.72022e-08
   37  7.71902e-08
   38  7.71782e-08
   39  7.71663e-08
   40  7.71543e-08
   41  7.71423e-08
   42  7.71304e-08
   43  7.71184e-08
   44  7.71064e-08
   45  7.70945e-08
   46  7.70825e-08
   47  7.70705e-08
   48  7.70586e-08
   49  7.70465e-08
   50  7.70346e-08
   51  7.70226e-08
   52  7.70106e-08
   53  7.69986e-08
   54  7.69866e-08
   55  7.69747e-08
   56  7.69627e-08
   57  7.69507e-08
   58  7.69387e-08
   59  7.69267e-08
   60  7.69148e-08
   61  7.69028e-08
   62  7.68908e-08
   63  7.68788e-08
   64  7.68668e-08
   65  7.68548e-08
   66  7.68428e-08
   67  7.68309e-08
   68  7.68189e-08
   69  7.68069e-08
   70  7.67949e-08
   71  7.67829e-08
   72  7.67710e-08
   73  7.67590e-08
   74  7.67470e-08
   75  7.67351e-08
   76  7.67230e-08
   77  7.67111e-08
   78  7.66992e-08
   79  7.66872e-08
   80  7.66752e-08
   81  7.66632e-08
   82  7.66512e-08
   83  7.66392e-08
   84  7.66272e-08
   85  7.66152e-08
   86  7.66032e-08
   87  7.65912e-08
   88  7.65793e-08
   89  7.65673e-08
   90  7.65553e-08
   91  7.65433e-08
   92  7.65313e-08
   93  7.65193e-08
   94  7.65073e-08
   95  7.64954e-08
   96  7.64834e-08
   97  7.64714e-08
   98  7.64594e-08
   99  7.64474e-08
  100  7.64355e-08
  101  7.64233e-08
  102  7.64111e-08
  103  7.63990e-08
  104  7.63868e-08
  105  7.63747e-08
  106  7.63626e-08
  107  7.63504e-08
  108  7.63383e-08
  109  7.63261e-08
  110  7.63140e-08
  111  7.63019e-08
  112  7.62897e-08
  113  7.62776e-08
  114  7.62654e-08
  115  7.62532e-08
  116  7.62411e-08
  117  7.62290e-08
  118  7.62168e-08
  119  7.62047e-08
  120  7.61925e-08
  121  7.61804e-08
  122  7.61683e-08
  123  7.61561e-08
  124  7.61440e-08
  125  7.61318e-08
  126  7.61197e-08
  127  7.61075e-08
  128  7.60954e-08
  129  7.60833e-08
  130  7.60711e-08
  131  7.60589e-08
  132  7.60468e-08
  133  7.60347e-08
  134  7.60225e-08
  135  7.60103e-08
  136  7.59982e-08
  137  7.59861e-08
  138  7.59739e-08
  139  7.59619e-08
  140  7.59496e-08
  141  7.59375e-08
  142  7.59253e-08
  143  7.59132e-08
  144  7.59011e-08
  145  7.58889e-08
  146  7.58767e-08
  147  7.58646e-08
  148  7.58525e-08
  149  7.58403e-08
  150  7.58282e-08
  151  7.58160e-08
  152  7.58038e-08
  153  7.57917e-08
  154  7.57796e-08
  155  7.57674e-08
  156  7.57552e-08
  157  7.57431e-08
  158  7.57310e-08
  159  7.57188e-08
  160  7.57067e-08
  161  7.56945e-08
  162  7.56823e-08
  163  7.56702e-08
  164  7.56580e-08
  165  7.56459e-08
  166  7.56337e-08
  167  7.56216e-08
  168  7.56095e-08
  169  7.55973e-08
  170  7.55851e-08
  171  7.55729e-08
  172  7.55608e-08
  173  7.55486e-08
  174  7.55365e-08
  175  7.55243e-08
  176  7.55122e-08
  177  7.55001e-08
  178  7.54879e-08
  179  7.54758e-08
  180  7.54636e-08
  181  7.54515e-08
  182  7.54393e-08
  183  7.54271e-08
  184  7.54149e-08
  185  7.54028e-08
  186  7.53907e-08
  187  7.53784e-08
  188  7.53664e-08
  189  7.53541e-08
  190  7.53421e-08
  191  7.53299e-08
  192  7.53177e-08
  193  7.53055e-08
  194  7.52934e-08
  195  7.52812e-08
  196  7.52691e-08
  197  7.52570e-08
  198  7.52448e-08
  199  7.52326e-08
  200  7.52205e-08
  201  7.52083e-08
  202  7.51961e-08
  203  7.51840e-08
  204  7.51718e-08
  205  7.51597e-08
  206  7.51474e-08
  207  7.51354e-08
  208  7.51232e-08
  209  7.51110e-08
  210  7.50988e-08
  211  7.50866e-08
  212  7.50745e-08
  213  7.50623e-08
  214  7.50502e-08
  215  7.50380e-08
  216  7.50258e-08
  217  7.50136e-08
  218  7.50015e-08
  219  7.49893e-08
  220  7.49771e-08
  221  7.49650e-08
  222  7.49528e-08
  223  7.49406e-08
  224  7.49285e-08
  225  7.49163e-08
  226  7.49041e-08
  227  7.48919e-08
  228  7.48798e-08
  229  7.48677e-08
  230  7.48555e-08
  231  7.48434e-08
  232  7.48312e-08
  233  7.48190e-08
  234  7.48068e-08
  235  7.47947e-08
  236  7.47825e-08
  237  7.47703e-08
  238  7.47582e-08
  239  7.47460e-08
  240  7.47338e-08
  241  7.47216e-08
  242  7.47095e-08
  243  7.46973e-08
  244  7.46851e-08
  245  7.46730e-08
  246  7.46608e-08
  247  7.46486e-08
  248  7.46364e-08
  249  7.46243e-08
  250  7.46121e-08
  251  7.45999e-08
  252  7.45878e-08
  253  7.45756e-08
  254  7.45634e-08
  255  7.45513e-08
  256  7.45390e-08
  257  7.45269e-08
  258  7.45147e-08
  259  7.45026e-08
  260  7.44904e-08
  261  7.44782e-08
  262  7.44661e-08
  263  7.44539e-08
  264  7.44417e-08
  265  7.44295e-08
  266  7.44173e-08
  267  7.44052e-08
  268  7.43930e-08
  269  7.43808e-08
  270  7.43686e-08
  271  7.43565e-08
  272  7.43443e-08
  273  7.43321e-08
  274  7.43199e-08
  275  7.43077e-08
  276  7.42956e-08
  277  7.42834e-08
  278  7.42712e-08
  279  7.42591e-08
  280  7.42469e-08
  281  7.42347e-08
  282  7.42225e-08
  283  7.42103e-08
  284  7.41982e-08
  285  7.41860e-08
  286  7.41738e-08
  287  7.41617e-08
  288  7.41495e-08
  289  7.41373e-08
  290  7.41251e-08
  291  7.41130e-08
  292  7.41008e-08
  293  7.40886e-08
  294  7.40764e-08
  295  7.40643e-08
  296  7.40521e-08
  297  7.40399e-08
  298  7.40277e-08
  299  7.40156e-08
  300  7.40033e-08
  301  7.39912e-08
  302  7.39792e-08
  303  7.39671e-08
  304  7.39550e-08
  305  7.39429e-08
  306  7.39308e-08
  307  7.39187e-08
  308  7.39066e-08
  309  7.38945e-08
  310  7.38825e-08
  311  7.38703e-08
  312  7.38582e-08
  313  7.38462e-08
  314  7.38341e-08
  315  7.38220e-08
  316  7.38098e-08
  317  7.37978e-08
  318  7.37857e-08
  319  7.37736e-08
  320  7.37615e-08
  321  7.37494e-08
  322  7.37373e-08
  323  7.37252e-08
  324  7.37131e-08
  325  7.37010e-08
  326  7.36889e-08
  327  7.36768e-08
  328  7.36648e-08
  329  7.36527e-08
  330  7.36405e-08
  331  7.36285e-08
  332  7.36164e-08
  333  7.36042e-08
  334  7.35922e-08
  335  7.35800e-08
  336  7.35680e-08
  337  7.35559e-08
  338  7.35438e-08
  339  7.35317e-08
  340  7.35196e-08
  341  7.35075e-08
  342  7.34955e-08
  343  7.34833e-08
  344  7.34712e-08
  345  7.34591e-08
  346  7.34470e-08
  347  7.34349e-08
  348  7.34228e-08
  349  7.34107e-08
  350  7.33986e-08
  351  7.33866e-08
  352  7.33744e-08
  353  7.33623e-08
  354  7.33502e-08
  355  7.33381e-08
  356  7.33260e-08
  357  7.33139e-08
  358  7.33019e-08
  359  7.32898e-08
  360  7.32777e-08
  361  7.32655e-08
  362  7.32534e-08
  363  7.32414e-08
  364  7.32292e-08
  365  7.32172e-08
  366  7.32050e-08
  367  7.31929e-08
  368  7.31808e-08
  369  7.31687e-08
  370  7.31566e-08
  371  7.31445e-08
  372  7.31325e-08
  373  7.31203e-08
  374  7.31082e-08
  375  7.30961e-08
  376  7.30841e-08
  377  7.30719e-08
  378  7.30598e-08
  379  7.30477e-08
  380  7.30356e-08
  381  7.30236e-08
  382  7.30114e-08
  383  7.29993e-08
  384  7.29872e-08
  385  7.29751e-08
  386  7.29630e-08
  387  7.29509e-08
  388  7.29388e-08
  389  7.29267e-08
  390  7.29146e-08
  391  7.29025e-08
  392  7.28904e-08
  393  7.28783e-08
  394  7.28662e-08
  395  7.28540e-08
  396  7.28420e-08
  397  7.28299e-08
  398  7.28178e-08
  399  7.28057e-08
  400  7.27935e-08
  401  7.27816e-08
  402  7.27697e-08
  403  7.27578e-08
  404  7.27459e-08
  405  7.27339e-08
  406  7.27220e-08
  407  7.27101e-08
  408  7.26981e-08
  409  7.26862e-08
  410  7.26743e-08
  411  7.26624e-08
  412  7.26504e-08
  413  7.26386e-08
  414  7.26266e-08
  415  7.26147e-08
  416  7.26028e-08
  417  7.25908e-08
  418  7.25789e-08
  419  7.25670e-08
  420  7.25551e-08
  421  7.25431e-08
  422  7.25312e-08
  423  7.25193e-08
  424  7.25074e-08
  425  7.24954e-08
  426  7.24835e-08
  427  7.24716e-08
  428  7.24596e-08
  429  7.24477e-08
  430  7.24358e-08
  431  7.24239e-08
  432  7.24119e-08
  433  7.23999e-08
  434  7.23881e-08
  435  7.23761e-08
  436  7.23643e-08
  437  7.23523e-08
  438  7.23404e-08
  439  7.23285e-08
  440  7.23165e-08
  441  7.23045e-08
  442  7.22926e-08
  443  7.22807e-08
  444  7.22688e-08
  445  7.22569e-08
  446  7.22449e-08
  447  7.22330e-08
  448  7.22211e-08
  449  7.22091e-08
  450  7.21972e-08
  451  7.21853e-08
  452  7.21734e-08
  453  7.21614e-08
  454  7.21495e-08
  455  7.21375e-08
  456  7.21256e-08
  457  7.21137e-08
  458  7.21018e-08
  459  7.20898e-08
  460  7.20779e-08
  461  7.20660e-08
  462  7.20541e-08
  463  7.20420e-08
  464  7.20302e-08
  465  7.20182e-08
  466  7.20063e-08
  467  7.19944e-08
  468  7.19825e-08
  469  7.19705e-08
  470  7.19586e-08
  471  7.19467e-08
  472  7.19347e-08
  473  7.19227e-08
  474  7.19109e-08
  475  7.18989e-08
  476  7.18870e-08
  477  7.18750e-08
  478  7.18631e-08
  479  7.18511e-08
  480  7.18392e-08
  481  7.18273e-08
  482  7.18154e-08
  483  7.18034e-08
  484  7.17915e-08
  485  7.17796e-08
  486  7.17677e-08
  487  7.17557e-08
  488  7.17437e-08
  489  7.17318e-08
  490  7.17198e-08
  491  7.17079e-08
  492  7.16960e-08
  493  7.16841e-08
  494  7.16721e-08
  495  7.16602e-08
  496  7.16483e-08
  497  7.16363e-08
  498  7.16244e-08
  499  7.16125e-08
  500  7.16005e-08
  501  7.15888e-08
  502  7.15771e-08
  503  7.15654e-08
  504  7.15537e-08
  505  7.15420e-08
  506  7.15304e-08
  507  7.15187e-08
  508  7.15071e-08
  509  7.14953e-08
  510  7.14836e-08
  511  7.14720e-08
  512  7.14603e-08
  513  7.14486e-08
  514  7.14369e-08
  515  7.14253e-08
  516  7.14135e-08
  517  7.14019e-08
  518  7.13901e-08
  519  7.13784e-08
  520  7.13668e-08
  521  7.13551e-08
  522  7.13434e-08
  523  7.13317e-08
  524  7.13199e-08
  525  7.13083e-08
  526  7.12966e-08
  527  7.12849e-08
  528  7.12732e-08
  529  7.12616e-08
  530  7.12499e-08
  531  7.12381e-08
  532  7.12265e-08
  533  7.12148e-08
  534  7.12031e-08
  535  7.11914e-08
  536  7.11797e-08
  537  7.11680e-08
  538  7.11564e-08
  539  7.11447e-08
  540  7.11330e-08
  541  7.11213e-08
  542  7.11096e-08
  543  7.10979e-08
  544  7.10862e-08
  545  7.10745e-08
  546  7.10628e-08
  547  7.10511e-08
  548  7.10394e-08
  549  7.10277e-08
  550  7.10160e-08
  551  7.10043e-08
  552  7.09927e-08
  553  7.09809e-08
  554  7.09693e-08
  555  7.09575e-08
  556  7.09458e-08
  557  7.09342e-08
  558  7.09224e-08
  559  7.09107e-08
  560  7.08991e-08
  561  7.08874e-08
  562  7.08757e-08
  563  7.08640e-08
  564  7.08523e-08
  565  7.08406e-08
  566  7.08289e-08
  567  7.08172e-08
  568  7.08056e-08
  569  7.07939e-08
  570  7.07822e-08
  571  7.07705e-08
  572  7.07587e-08
  573  7.07471e-08
  574  7.07354e-08
  575  7.07237e-08
  576  7.07120e-08
  577  7.07003e-08
  578  7.06886e-08
  579  7.06769e-08
  580  7.06651e-08
  581  7.06535e-08
  582  7.06418e-08
  583  7.06301e-08
  584  7.06184e-08
  585  7.06067e-08
  586  7.05950e-08
  587  7.05833e-08
  588  7.05716e-08
  589  7.05599e-08
  590  7.05482e-08
  591  7.05366e-08
  592  7.05248e-08
  593  7.05131e-08
  594  7.05014e-08
  595  7.04897e-08
  596  7.04780e-08
  597  7.04663e-08
  598  7.04546e-08
  599  7.04430e-08
  600  7.04312e-08
  601  7.04198e-08
  602  7.04084e-08
  603  7.03970e-08
  604  7.03856e-08
  605  7.03742e-08
  606  7.03627e-08
  607  7.03513e-08
  608  7.03399e-08
  609  7.03285e-08
  610  7.03171e-08
  611  7.03057e-08
  612  7.02943e-08
  613  7.02829e-08
  614  7.02714e-08
  615  7.02601e-08
  616  7.02486e-08
  617  7.02372e-08
  618  7.02258e-08
  619  7.02145e-08
  620  7.02030e-08
  621  7.01916e-08
  622  7.01801e-08
  623  7.01687e-08
  624  7.01573e-08
  625  7.01460e-08
  626  7.01345e-08
  627  7.01231e-08
  628  7.01117e-08
  629  7.01003e-08
  630  7.00888e-08
  631  7.00774e-08
  632  7.00660e-08
  633  7.00546e-08
  634  7.00432e-08
  635  7.00318e-08
  636  7.00204e-08
  637  7.00089e-08
  638  6.99975e-08
  639  6.99861e-08
  640  6.99747e-08
  641  6.99633e-08
  642  6.99519e-08
  643  6.99405e-08
  644  6.99290e-08
  645  6.99176e-08
  646  6.99062e-08
  647  6.98948e-08
  648  6.98834e-08
  649  6.98720e-08
  650  6.98605e-08
  651  6.98491e-08
  652  6.98377e-08
  653  6.98262e-08
  654  6.98149e-08
  655  6.98035e-08
  656  6.97920e-08
  657  6.97806e-08
  658  6.97692e-08
  659  6.97578e-08
  660  6.97463e-08
  661  6.97349e-08
  662  6.97235e-08
  663  6.97121e-08
  664  6.97006e-08
  665  6.96893e-08
  666  6.96779e-08
  667  6.96665e-08
  668  6.96550e-08
  669  6.96436e-08
  670  6.96322e-08
  671  6.96207e-08
  672  6.96093e-08
  673  6.95979e-08
  674  6.95865e-08
  675  6.95750e-08
  676  6.95637e-08
  677  6.95522e-08
  678  6.95408e-08
  679  6.95294e-08
  680  6.95179e-08
  681  6.95065e-08
  682  6.94951e-08
  683  6.94837e-08
  684  6.94723e-08
  685  6.94609e-08
  686  6.94494e-08
  687  6.94380e-08
  688  6.94267e-08
  689  6.94152e-08
  690  6.94038e-08
  691  6.93923e-08
  692  6.93809e-08
  693  6.93694e-08
  694  6.93580e-08
  695  6.93467e-08
  696  6.93352e-08
  697  6.93238e-08
  698  6.93124e-08
  699  6.93009e-08
  700  6.92895e-08
  701  6.92784e-08
  702  6.92673e-08
  703  6.92561e-08
  704  6.92450e-08
  705  6.92338e-08
  706  6.92227e-08
  707  6.92116e-08
  708  6.92005e-08
  709  6.91893e-08
  710  6.91782e-08
  711  6.91670e-08
  712  6.91560e-08
  713  6.91448e-08
  714  6.91337e-08
  715  6.91225e-08
  716  6.91114e-08
  717  6.91002e-08
  718  6.90891e-08
  719  6.90780e-08
  720  6.90669e-08
  721  6.90557e-08
  722  6.90446e-08
  723  6.90335e-08
  724  6.90223e-08
  725  6.90112e-08
  726  6.90001e-08
  727  6.89889e-08
  728  6.89778e-08
  729  6.89666e-08
  730  6.89554e-08
  731  6.89444e-08
  732  6.89332e-08
  733  6.89222e-08
  734  6.89110e-08
  735  6.88999e-08
  736  6.88887e-08
  737  6.88776e-08
  738  6.88664e-08
  739  6.88552e-08
  740  6.88442e-08
  741  6.88330e-08
  742  6.88219e-08
  743  6.88108e-08
  744  6.87996e-08
  745  6.87885e-08
  746  6.87774e-08
  747  6.87663e-08
  748  6.87551e-08
  749  6.87440e-08
  750  6.87328e-08
  751  6.87217e-08
  752  6.87105e-08
  753  6.86994e-08
  754  6.86883e-08
  755  6.86771e-08
  756  6.86660e-08
  757  6.86548e-08
  758  6.86438e-08
  759  6.86326e-08
  760  6.86214e-08
  761  6.86103e-08
  762  6.85991e-08
  763  6.85880e-08
  764  6.85768e-08
  765  6.85658e-08
  766  6.85546e-08
  767  6.85435e-08
  768  6.85323e-08
  769  6.85212e-08
  770  6.85100e-08
  771  6.84989e-08
  772  6.84877e-08
  773  6.84766e-08
  774  6.84655e-08
  775  6.84544e-08
  776  6.84432e-08
  777  6.84321e-08
  778  6.84209e-08
  779  6.84098e-08
  780  6.83987e-08
  781  6.83875e-08
  782  6.83764e-08
  783  6.83652e-08
  784  6.83541e-08
  785  6.83429e-08
  786  6.83318e-08
  787  6.83207e-08
  788  6.83095e-08
  789  6.82984e-08
  790  6.82872e-08
  791  6.82761e-08
  792  6.82649e-08
  793  6.82538e-08
  794  6.82427e-08
  795  6.82316e-08
  796  6.82204e-08
  797  6.82093e-08
  798  6.81981e-08
  799  6.81870e-08
  800  6.81758e-08
  801  6.81649e-08
  802  6.81540e-08
  803  6.81432e-08
  804  6.81323e-08
  805  6.81215e-08
  806  6.81106e-08
  807  6.80997e-08
  808  6.80888e-08
  809  6.80780e-08
  810  6.80671e-08
  811  6.80562e-08
  812  6.80454e-08
  813  6.80345e-08
  814  6.80236e-08
  815  6.80127e-08
  816  6.80019e-08
  817  6.79910e-08
  818  6.79801e-08
  819  6.79693e-08
  820  6.79584e-08
  821  6.79475e-08
  822  6.79366e-08
  823  6.79257e-08
  824  6.79149e-08
  825  6.79040e-08
  826  6.78931e-08
  827  6.78822e-08
  828  6.78713e-08
  829  6.78605e-08
  830  6.78496e-08
  831  6.78387e-08
  832  6.78279e-08
  833  6.78170e-08
  834  6.78061e-08
  835  6.77952e-08
  836  6.77844e-08
  837  6.77735e-08
  838  6.77627e-08
  839  6.77518e-08
  840  6.77408e-08
  841  6.77300e-08
  842  6.77191e-08
  843  6.77083e-08
  844  6.76974e-08
  845  6.76865e-08
  846  6.76756e-08
  847  6.76648e-08
  848  6.76539e-08
  849  6.76430e-08
  850  6.76321e-08
  851  6.76213e-08
  852  6.76104e-08
  853  6.75995e-08
  854  6.75886e-08
  855  6.75777e-08
  856  6.75669e-08
  857  6.75560e-08
  858  6.75451e-08
  859  6.75342e-08
  860  6.75234e-08
  861  6.75125e-08
  862  6.75016e-08
  863  6.74907e-08
  864  6.74799e-08
  865  6.74689e-08
  866  6.74581e-08
  867  6.74472e-08
  868  6.74363e-08
  869  6.74255e-08
  870  6.74146e-08
  871  6.74037e-08
  872  6.73928e-08
  873  6.73819e-08
  874  6.73710e-08
  875  6.73602e-08
  876  6.73493e-08
  877  6.73384e-08
  878  6.73275e-08
  879  6.73167e-08
  880  6.73058e-08
  881  6.72949e-08
  882  6.72840e-08
  883  6.72732e-08
  884  6.72623e-08
  885  6.72513e-08
  886  6.72404e-08
  887  6.72297e-08
  888  6.72188e-08
  889  6.72079e-08
  890  6.71970e-08
  891  6.71861e-08
  892  6.71752e-08
  893  6.71644e-08
  894  6.71535e-08
  895  6.71426e-08
  896  6.71317e-08
  897  6.71208e-08
  898  6.71099e-08
  899  6.70990e-08
  900  6.70882e-08
  901  6.70775e-08
  902  6.70668e-08
  903  6.70562e-08
  904  6.70456e-08
  905  6.70349e-08
  906  6.70243e-08
  907  6.70136e-08
  908  6.70030e-08
  909  6.69924e-08
  910  6.69817e-08
  911  6.69711e-08
  912  6.69604e-08
  913  6.69498e-08
  914  6.69391e-08
  915  6.69285e-08
  916  6.69179e-08
  917  6.69072e-08
  918  6.68965e-08
  919  6.68859e-08
  920  6.68753e-08
  921  6.68646e-08
  922  6.68540e-08
  923  6.68433e-08
  924  6.68327e-08
  925  6.68220e-08
  926  6.68114e-08
  927  6.68007e-08
  928  6.67901e-08
  929  6.67794e-08
  930  6.67688e-08
  931  6.67582e-08
  932  6.67475e-08
  933  6.67368e-08
  934  6.67262e-08
  935  6.67156e-08
  936  6.67049e-08
  937  6.66943e-08
  938  6.66837e-08
  939  6.66729e-08
  940  6.66623e-08
  941  6.66516e-08
  942  6.66410e-08
  943  6.66304e-08
  944  6.66198e-08
  945  6.66091e-08
  946  6.65984e-08
  947  6.65878e-08
  948  6.65771e-08
  949  6.65665e-08
  950  6.65559e-08
  951  6.65452e-08
  952  6.65346e-08
  953  6.65239e-08
  954  6.65132e-08
  955  6.65026e-08
  956  6.64920e-08
  957  6.64813e-08
  958  6.64707e-08
  959  6.64600e-08
  960  6.64493e-08
  961  6.64387e-08
  962  6.64280e-08
  963  6.64174e-08
  964  6.64068e-08
  965  6.63961e-08
  966  6.63855e-08
  967  6.63748e-08
  968  6.63641e-08
  969  6.63535e-08
  970  6.63428e-08
  971  6.63322e-08
  972  6.63216e-08
  973  6.63109e-08
  974  6.63002e-08
  975  6.62896e-08
  976  6.62789e-08
  977  6.62683e-08
  978  6.62576e-08
  979  6.62470e-08
  980  6.62363e-08
  981  6.62257e-08
  982  6.62150e-08
  983  6.62043e-08
  984  6.61937e-08
  985  6.61831e-08
  986  6.61724e-08
  987  6.61618e-08
  988  6.61510e-08
  989  6.61404e-08
  990  6.61298e-08
  991  6.61191e-08
  992  6.61084e-08
  993  6.60978e-08
  994  6.60872e-08
  995  6.60765e-08
  996  6.60659e-08
  997  6.60552e-08
  998  6.60446e-08
  999  6.60339e-08
 1000  6.60233e-08
 1001  6.60128e-08
 1002  6.60024e-08
 1003  6.59919e-08
 1004  6.59814e-08
 1005  6.59710e-08
 1006  6.59605e-08
 1007  6.59501e-08
 1008  6.59396e-08
 1009  6.59292e-08
 1010  6.59187e-08
 1011  6.59082e-08
 1012  6.58978e-08
 1013  6.58873e-08
 1014  6.58769e-08
 1015  6.58665e-08
 1016  6.58559e-08
 1017  6.58455e-08
 1018  6.58351e-08
 1019  6.58246e-08
 1020  6.58141e-08
 1021  6.58037e-08
 1022  6.57932e-08
 1023  6.57828e-08
 1024  6.57724e-08
 1025  6.57619e-08
 1026  6.57514e-08
 1027  6.57409e-08
 1028  6.57305e-08
 1029  6.57201e-08
 1030  6.57096e-08
 1031  6.56991e-08
 1032  6.56887e-08
 1033  6.56782e-08
 1034  6.56677e-08
 1035  6.56574e-08
 1036  6.56468e-08
 1037  6.56364e-08
 1038  6.56259e-08
 1039  6.56155e-08
 1040  6.56050e-08
 1041  6.55946e-08
 1042  6.55841e-08
 1043  6.55736e-08
 1044  6.55632e-08
 1045  6.55527e-08
 1046  6.55423e-08
 1047  6.55318e-08
