# alpha = 1.65, nu_ref = 148.47 GHz, nu_shift = 0.19 GHz
# solid angle = 228.27 nsr
    0  3.63309e-08
    1  3.63275e-08
    2  3.63241e-08
    3  3.63206e-08
    4  3.63173e-08
    5  3.63138e-08
    6  3.63104e-08
    7  3.63070e-08
    8  3.63036e-08
    9  3.63002e-08
   10  3.62968e-08
   11  3.62934e-08
   12  3.62900e-08
   13  3.62866e-08
   14  3.62831e-08
   15  3.62797e-08
   16  3.62763e-08
   17  3.62728e-08
   18  3.62695e-08
   19  3.62661e-08
   20  3.62626e-08
   21  3.62592e-08
   22  3.62558e-08
   23  3.62524e-08
   24  3.62490e-08
   25  3.62455e-08
   26  3.62422e-08
   27  3.62387e-08
   28  3.62353e-08
   29  3.62320e-08
   30  3.62285e-08
   31  3.62251e-08
   32  3.62217e-08
   33  3.62183e-08
   34  3.62148e-08
   35  3.62114e-08
   36  3.62081e-08
   37  3.62046e-08
   38  3.62012e-08
   39  3.61977e-08
   40  3.61943e-08
   41  3.61909e-08
   42  3.61875e-08
   43  3.61841e-08
   44  3.61807e-08
   45  3.61773e-08
   46  3.61739e-08
   47  3.61705e-08
   48  3.61670e-08
   49  3.61637e-08
   50  3.61603e-08
   51  3.61569e-08
   52  3.61534e-08
   53  3.61499e-08
   54  3.61466e-08
   55  3.61432e-08
   56  3.61398e-08
   57  3.61364e-08
   58  3.61330e-08
   59  3.61295e-08
   60  3.61261e-08
   61  3.61227e-08
   62  3.61193e-08
   63  3.61159e-08
   64  3.61124e-08
   65  3.61090e-08
   66  3.61056e-08
   67  3.61022e-08
   68  3.60988e-08
   69  3.60954e-08
   70  3.60919e-08
   71  3.60885e-08
   72  3.60851e-08
   73  3.60817e-08
   74  3.60782e-08
   75  3.60749e-08
   76  3.60714e-08
   77  3.60680e-08
   78  3.60646e-08
   79  3.60612e-08
   80  3.60578e-08
   81  3.60544e-08
   82  3.60510e-08
   83  3.60476e-08
   84  3.60441e-08
   85  3.60407e-08
   86  3.60373e-08
   87  3.60339e-08
   88  3.60304e-08
   89  3.60270e-08
   90  3.60236e-08
   91  3.60202e-08
   92  3.60168e-08
   93  3.60133e-08
   94  3.60099e-08
   95  3.60065e-08
   96  3.60031e-08
   97  3.59997e-08
   98  3.59963e-08
   99  3.59929e-08
  100  3.59895e-08
  101  3.59859e-08
  102  3.59823e-08
  103  3.59788e-08
  104  3.59752e-08
  105  3.59717e-08
  106  3.59681e-08
  107  3.59646e-08
  108  3.59610e-08
  109  3.59575e-08
  110  3.59539e-08
  111  3.59504e-08
  112  3.59468e-08
  113  3.59432e-08
  114  3.59396e-08
  115  3.59361e-08
  116  3.59326e-08
  117  3.59290e-08
  118  3.59254e-08
  119  3.59219e-08
  120  3.59184e-08
  121  3.59148e-08
  122  3.59113e-08
  123  3.59077e-08
  124  3.59041e-08
  125  3.59005e-08
  126  3.58970e-08
  127  3.58935e-08
  128  3.58899e-08
  129  3.58863e-08
  130  3.58828e-08
  131  3.58793e-08
  132  3.58756e-08
  133  3.58722e-08
  134  3.58686e-08
  135  3.58650e-08
  136  3.58614e-08
  137  3.58579e-08
  138  3.58543e-08
  139  3.58508e-08
  140  3.58472e-08
  141  3.58437e-08
  142  3.58401e-08
  143  3.58365e-08
  144  3.58330e-08
  145  3.58294e-08
  146  3.58259e-08
  147  3.58223e-08
  148  3.58188e-08
  149  3.58152e-08
  150  3.58116e-08
  151  3.58081e-08
  152  3.58046e-08
  153  3.58009e-08
  154  3.57974e-08
  155  3.57939e-08
  156  3.57903e-08
  157  3.57867e-08
  158  3.57832e-08
  159  3.57796e-08
  160  3.57760e-08
  161  3.57725e-08
  162  3.57690e-08
  163  3.57654e-08
  164  3.57618e-08
  165  3.57583e-08
  166  3.57547e-08
  167  3.57512e-08
  168  3.57476e-08
  169  3.57441e-08
  170  3.57405e-08
  171  3.57369e-08
  172  3.57333e-08
  173  3.57298e-08
  174  3.57263e-08
  175  3.57227e-08
  176  3.57191e-08
  177  3.57156e-08
  178  3.57121e-08
  179  3.57085e-08
  180  3.57049e-08
  181  3.57014e-08
  182  3.56978e-08
  183  3.56942e-08
  184  3.56907e-08
  185  3.56871e-08
  186  3.56836e-08
  187  3.56800e-08
  188  3.56764e-08
  189  3.56729e-08
  190  3.56693e-08
  191  3.56658e-08
  192  3.56622e-08
  193  3.56586e-08
  194  3.56551e-08
  195  3.56516e-08
  196  3.56479e-08
  197  3.56445e-08
  198  3.56408e-08
  199  3.56373e-08
  200  3.56337e-08
  201  3.56301e-08
  202  3.56265e-08
  203  3.56228e-08
  204  3.56191e-08
  205  3.56155e-08
  206  3.56118e-08
  207  3.56081e-08
  208  3.56045e-08
  209  3.56008e-08
  210  3.55972e-08
  211  3.55935e-08
  212  3.55898e-08
  213  3.55862e-08
  214  3.55825e-08
  215  3.55788e-08
  216  3.55752e-08
  217  3.55715e-08
  218  3.55679e-08
  219  3.55642e-08
  220  3.55606e-08
  221  3.55569e-08
  222  3.55532e-08
  223  3.55496e-08
  224  3.55459e-08
  225  3.55422e-08
  226  3.55386e-08
  227  3.55349e-08
  228  3.55313e-08
  229  3.55276e-08
  230  3.55239e-08
  231  3.55203e-08
  232  3.55166e-08
  233  3.55130e-08
  234  3.55093e-08
  235  3.55056e-08
  236  3.55020e-08
  237  3.54983e-08
  238  3.54947e-08
  239  3.54910e-08
  240  3.54873e-08
  241  3.54837e-08
  242  3.54800e-08
  243  3.54763e-08
  244  3.54727e-08
  245  3.54690e-08
  246  3.54653e-08
  247  3.54617e-08
  248  3.54580e-08
  249  3.54544e-08
  250  3.54507e-08
  251  3.54471e-08
  252  3.54434e-08
  253  3.54397e-08
  254  3.54361e-08
  255  3.54324e-08
  256  3.54287e-08
  257  3.54250e-08
  258  3.54215e-08
  259  3.54177e-08
  260  3.54141e-08
  261  3.54105e-08
  262  3.54068e-08
  263  3.54031e-08
  264  3.53995e-08
  265  3.53957e-08
  266  3.53922e-08
  267  3.53885e-08
  268  3.53848e-08
  269  3.53811e-08
  270  3.53775e-08
  271  3.53738e-08
  272  3.53701e-08
  273  3.53665e-08
  274  3.53628e-08
  275  3.53591e-08
  276  3.53555e-08
  277  3.53518e-08
  278  3.53482e-08
  279  3.53445e-08
  280  3.53408e-08
  281  3.53372e-08
  282  3.53335e-08
  283  3.53298e-08
  284  3.53262e-08
  285  3.53226e-08
  286  3.53188e-08
  287  3.53152e-08
  288  3.53116e-08
  289  3.53079e-08
  290  3.53042e-08
  291  3.53005e-08
  292  3.52969e-08
  293  3.52933e-08
  294  3.52895e-08
  295  3.52859e-08
  296  3.52822e-08
  297  3.52786e-08
  298  3.52749e-08
  299  3.52712e-08
  300  3.52676e-08
  301  3.52638e-08
  302  3.52601e-08
  303  3.52564e-08
  304  3.52526e-08
  305  3.52489e-08
  306  3.52452e-08
  307  3.52414e-08
  308  3.52377e-08
  309  3.52339e-08
  310  3.52302e-08
  311  3.52264e-08
  312  3.52226e-08
  313  3.52189e-08
  314  3.52152e-08
  315  3.52114e-08
  316  3.52077e-08
  317  3.52039e-08
  318  3.52002e-08
  319  3.51965e-08
  320  3.51927e-08
  321  3.51890e-08
  322  3.51853e-08
  323  3.51815e-08
  324  3.51778e-08
  325  3.51741e-08
  326  3.51703e-08
  327  3.51665e-08
  328  3.51628e-08
  329  3.51591e-08
  330  3.51553e-08
  331  3.51516e-08
  332  3.51479e-08
  333  3.51441e-08
  334  3.51403e-08
  335  3.51366e-08
  336  3.51328e-08
  337  3.51291e-08
  338  3.51254e-08
  339  3.51216e-08
  340  3.51179e-08
  341  3.51142e-08
  342  3.51104e-08
  343  3.51066e-08
  344  3.51029e-08
  345  3.50992e-08
  346  3.50954e-08
  347  3.50917e-08
  348  3.50879e-08
  349  3.50843e-08
  350  3.50805e-08
  351  3.50767e-08
  352  3.50730e-08
  353  3.50693e-08
  354  3.50655e-08
  355  3.50617e-08
  356  3.50580e-08
  357  3.50543e-08
  358  3.50505e-08
  359  3.50467e-08
  360  3.50430e-08
  361  3.50393e-08
  362  3.50355e-08
  363  3.50317e-08
  364  3.50280e-08
  365  3.50243e-08
  366  3.50206e-08
  367  3.50168e-08
  368  3.50131e-08
  369  3.50093e-08
  370  3.50056e-08
  371  3.50018e-08
  372  3.49981e-08
  373  3.49943e-08
  374  3.49906e-08
  375  3.49868e-08
  376  3.49831e-08
  377  3.49794e-08
  378  3.49756e-08
  379  3.49719e-08
  380  3.49682e-08
  381  3.49644e-08
  382  3.49607e-08
  383  3.49569e-08
  384  3.49531e-08
  385  3.49494e-08
  386  3.49457e-08
  387  3.49420e-08
  388  3.49382e-08
  389  3.49344e-08
  390  3.49307e-08
  391  3.49269e-08
  392  3.49232e-08
  393  3.49194e-08
  394  3.49157e-08
  395  3.49120e-08
  396  3.49082e-08
  397  3.49044e-08
  398  3.49008e-08
  399  3.48970e-08
  400  3.48933e-08
  401  3.48895e-08
  402  3.48856e-08
  403  3.48818e-08
  404  3.48780e-08
  405  3.48743e-08
  406  3.48705e-08
  407  3.48666e-08
  408  3.48629e-08
  409  3.48591e-08
  410  3.48553e-08
  411  3.48515e-08
  412  3.48477e-08
  413  3.48440e-08
  414  3.48401e-08
  415  3.48363e-08
  416  3.48326e-08
  417  3.48288e-08
  418  3.48249e-08
  419  3.48212e-08
  420  3.48174e-08
  421  3.48136e-08
  422  3.48097e-08
  423  3.48060e-08
  424  3.48022e-08
  425  3.47984e-08
  426  3.47946e-08
  427  3.47908e-08
  428  3.47870e-08
  429  3.47832e-08
  430  3.47795e-08
  431  3.47756e-08
  432  3.47718e-08
  433  3.47680e-08
  434  3.47642e-08
  435  3.47605e-08
  436  3.47566e-08
  437  3.47528e-08
  438  3.47490e-08
  439  3.47452e-08
  440  3.47414e-08
  441  3.47376e-08
  442  3.47339e-08
  443  3.47301e-08
  444  3.47263e-08
  445  3.47225e-08
  446  3.47187e-08
  447  3.47149e-08
  448  3.47111e-08
  449  3.47073e-08
  450  3.47035e-08
  451  3.46997e-08
  452  3.46959e-08
  453  3.46921e-08
  454  3.46883e-08
  455  3.46845e-08
  456  3.46807e-08
  457  3.46769e-08
  458  3.46732e-08
  459  3.46693e-08
  460  3.46655e-08
  461  3.46618e-08
  462  3.46579e-08
  463  3.46542e-08
  464  3.46504e-08
  465  3.46465e-08
  466  3.46428e-08
  467  3.46390e-08
  468  3.46352e-08
  469  3.46314e-08
  470  3.46275e-08
  471  3.46238e-08
  472  3.46200e-08
  473  3.46162e-08
  474  3.46124e-08
  475  3.46086e-08
  476  3.46048e-08
  477  3.46010e-08
  478  3.45973e-08
  479  3.45935e-08
  480  3.45896e-08
  481  3.45858e-08
  482  3.45820e-08
  483  3.45783e-08
  484  3.45745e-08
  485  3.45706e-08
  486  3.45669e-08
  487  3.45630e-08
  488  3.45593e-08
  489  3.45555e-08
  490  3.45516e-08
  491  3.45479e-08
  492  3.45441e-08
  493  3.45403e-08
  494  3.45365e-08
  495  3.45327e-08
  496  3.45289e-08
  497  3.45251e-08
  498  3.45213e-08
  499  3.45175e-08
  500  3.45137e-08
  501  3.45099e-08
  502  3.45061e-08
  503  3.45023e-08
  504  3.44984e-08
  505  3.44946e-08
  506  3.44908e-08
  507  3.44870e-08
  508  3.44832e-08
  509  3.44794e-08
  510  3.44755e-08
  511  3.44717e-08
  512  3.44679e-08
  513  3.44641e-08
  514  3.44602e-08
  515  3.44565e-08
  516  3.44527e-08
  517  3.44488e-08
  518  3.44450e-08
  519  3.44411e-08
  520  3.44373e-08
  521  3.44336e-08
  522  3.44298e-08
  523  3.44259e-08
  524  3.44221e-08
  525  3.44184e-08
  526  3.44145e-08
  527  3.44107e-08
  528  3.44068e-08
  529  3.44030e-08
  530  3.43992e-08
  531  3.43954e-08
  532  3.43916e-08
  533  3.43878e-08
  534  3.43840e-08
  535  3.43802e-08
  536  3.43763e-08
  537  3.43725e-08
  538  3.43687e-08
  539  3.43649e-08
  540  3.43611e-08
  541  3.43572e-08
  542  3.43534e-08
  543  3.43496e-08
  544  3.43458e-08
  545  3.43420e-08
  546  3.43382e-08
  547  3.43344e-08
  548  3.43305e-08
  549  3.43267e-08
  550  3.43229e-08
  551  3.43191e-08
  552  3.43153e-08
  553  3.43114e-08
  554  3.43076e-08
  555  3.43038e-08
  556  3.43000e-08
  557  3.42962e-08
  558  3.42923e-08
  559  3.42885e-08
  560  3.42847e-08
  561  3.42809e-08
  562  3.42771e-08
  563  3.42732e-08
  564  3.42694e-08
  565  3.42656e-08
  566  3.42618e-08
  567  3.42580e-08
  568  3.42542e-08
  569  3.42503e-08
  570  3.42465e-08
  571  3.42427e-08
  572  3.42389e-08
  573  3.42350e-08
  574  3.42313e-08
  575  3.42275e-08
  576  3.42236e-08
  577  3.42198e-08
  578  3.42160e-08
  579  3.42122e-08
  580  3.42084e-08
  581  3.42045e-08
  582  3.42008e-08
  583  3.41970e-08
  584  3.41931e-08
  585  3.41893e-08
  586  3.41855e-08
  587  3.41816e-08
  588  3.41778e-08
  589  3.41740e-08
  590  3.41701e-08
  591  3.41664e-08
  592  3.41626e-08
  593  3.41587e-08
  594  3.41549e-08
  595  3.41511e-08
  596  3.41473e-08
  597  3.41435e-08
  598  3.41396e-08
  599  3.41359e-08
  600  3.41320e-08
  601  3.41282e-08
  602  3.41244e-08
  603  3.41206e-08
  604  3.41168e-08
  605  3.41130e-08
  606  3.41091e-08
  607  3.41053e-08
  608  3.41016e-08
  609  3.40977e-08
  610  3.40940e-08
  611  3.40901e-08
  612  3.40864e-08
  613  3.40825e-08
  614  3.40787e-08
  615  3.40749e-08
  616  3.40711e-08
  617  3.40673e-08
  618  3.40635e-08
  619  3.40597e-08
  620  3.40559e-08
  621  3.40521e-08
  622  3.40483e-08
  623  3.40444e-08
  624  3.40406e-08
  625  3.40368e-08
  626  3.40330e-08
  627  3.40292e-08
  628  3.40254e-08
  629  3.40216e-08
  630  3.40178e-08
  631  3.40139e-08
  632  3.40102e-08
  633  3.40063e-08
  634  3.40025e-08
  635  3.39987e-08
  636  3.39949e-08
  637  3.39911e-08
  638  3.39873e-08
  639  3.39835e-08
  640  3.39797e-08
  641  3.39759e-08
  642  3.39720e-08
  643  3.39683e-08
  644  3.39645e-08
  645  3.39606e-08
  646  3.39568e-08
  647  3.39531e-08
  648  3.39492e-08
  649  3.39454e-08
  650  3.39416e-08
  651  3.39378e-08
  652  3.39340e-08
  653  3.39302e-08
  654  3.39264e-08
  655  3.39226e-08
  656  3.39188e-08
  657  3.39149e-08
  658  3.39111e-08
  659  3.39073e-08
  660  3.39035e-08
  661  3.38997e-08
  662  3.38959e-08
  663  3.38921e-08
  664  3.38883e-08
  665  3.38845e-08
  666  3.38807e-08
  667  3.38769e-08
  668  3.38731e-08
  669  3.38692e-08
  670  3.38654e-08
  671  3.38616e-08
  672  3.38578e-08
  673  3.38540e-08
  674  3.38502e-08
  675  3.38464e-08
  676  3.38426e-08
  677  3.38387e-08
  678  3.38350e-08
  679  3.38311e-08
  680  3.38274e-08
  681  3.38235e-08
  682  3.38197e-08
  683  3.38159e-08
  684  3.38121e-08
  685  3.38082e-08
  686  3.38045e-08
  687  3.38006e-08
  688  3.37968e-08
  689  3.37930e-08
  690  3.37892e-08
  691  3.37854e-08
  692  3.37816e-08
  693  3.37778e-08
  694  3.37740e-08
  695  3.37702e-08
  696  3.37663e-08
  697  3.37625e-08
  698  3.37588e-08
  699  3.37549e-08
  700  3.37511e-08
  701  3.37473e-08
  702  3.37436e-08
  703  3.37398e-08
  704  3.37360e-08
  705  3.37322e-08
  706  3.37284e-08
  707  3.37247e-08
  708  3.37209e-08
  709  3.37171e-08
  710  3.37134e-08
  711  3.37096e-08
  712  3.37058e-08
  713  3.37020e-08
  714  3.36983e-08
  715  3.36945e-08
  716  3.36907e-08
  717  3.36870e-08
  718  3.36832e-08
  719  3.36794e-08
  720  3.36756e-08
  721  3.36719e-08
  722  3.36681e-08
  723  3.36642e-08
  724  3.36605e-08
  725  3.36568e-08
  726  3.36530e-08
  727  3.36492e-08
  728  3.36454e-08
  729  3.36416e-08
  730  3.36378e-08
  731  3.36341e-08
  732  3.36303e-08
  733  3.36265e-08
  734  3.36227e-08
  735  3.36190e-08
  736  3.36152e-08
  737  3.36115e-08
  738  3.36076e-08
  739  3.36038e-08
  740  3.36001e-08
  741  3.35964e-08
  742  3.35926e-08
  743  3.35888e-08
  744  3.35850e-08
  745  3.35812e-08
  746  3.35775e-08
  747  3.35737e-08
  748  3.35699e-08
  749  3.35661e-08
  750  3.35623e-08
  751  3.35586e-08
  752  3.35548e-08
  753  3.35510e-08
  754  3.35472e-08
  755  3.35435e-08
  756  3.35396e-08
  757  3.35359e-08
  758  3.35321e-08
  759  3.35284e-08
  760  3.35245e-08
  761  3.35208e-08
  762  3.35170e-08
  763  3.35133e-08
  764  3.35095e-08
  765  3.35057e-08
  766  3.35019e-08
  767  3.34982e-08
  768  3.34944e-08
  769  3.34906e-08
  770  3.34868e-08
  771  3.34830e-08
  772  3.34792e-08
  773  3.34755e-08
  774  3.34717e-08
  775  3.34679e-08
  776  3.34642e-08
  777  3.34604e-08
  778  3.34567e-08
  779  3.34528e-08
  780  3.34491e-08
  781  3.34452e-08
  782  3.34415e-08
  783  3.34377e-08
  784  3.34339e-08
  785  3.34301e-08
  786  3.34264e-08
  787  3.34226e-08
  788  3.34188e-08
  789  3.34151e-08
  790  3.34113e-08
  791  3.34075e-08
  792  3.34037e-08
  793  3.33999e-08
  794  3.33962e-08
  795  3.33924e-08
  796  3.33886e-08
  797  3.33848e-08
  798  3.33811e-08
  799  3.33773e-08
  800  3.33735e-08
  801  3.33697e-08
  802  3.33660e-08
  803  3.33623e-08
  804  3.33586e-08
  805  3.33549e-08
  806  3.33512e-08
  807  3.33475e-08
  808  3.33437e-08
  809  3.33400e-08
  810  3.33363e-08
  811  3.33325e-08
  812  3.33289e-08
  813  3.33251e-08
  814  3.33214e-08
  815  3.33176e-08
  816  3.33140e-08
  817  3.33102e-08
  818  3.33065e-08
  819  3.33027e-08
  820  3.32990e-08
  821  3.32954e-08
  822  3.32916e-08
  823  3.32879e-08
  824  3.32841e-08
  825  3.32804e-08
  826  3.32768e-08
  827  3.32730e-08
  828  3.32692e-08
  829  3.32655e-08
  830  3.32618e-08
  831  3.32581e-08
  832  3.32544e-08
  833  3.32506e-08
  834  3.32469e-08
  835  3.32432e-08
  836  3.32395e-08
  837  3.32357e-08
  838  3.32320e-08
  839  3.32283e-08
  840  3.32246e-08
  841  3.32209e-08
  842  3.32171e-08
  843  3.32134e-08
  844  3.32097e-08
  845  3.32060e-08
  846  3.32022e-08
  847  3.31985e-08
  848  3.31948e-08
  849  3.31910e-08
  850  3.31874e-08
  851  3.31836e-08
  852  3.31799e-08
  853  3.31761e-08
  854  3.31724e-08
  855  3.31687e-08
  856  3.31650e-08
  857  3.31613e-08
  858  3.31576e-08
  859  3.31538e-08
  860  3.31501e-08
  861  3.31464e-08
  862  3.31426e-08
  863  3.31390e-08
  864  3.31352e-08
  865  3.31315e-08
  866  3.31277e-08
  867  3.31240e-08
  868  3.31203e-08
  869  3.31166e-08
  870  3.31128e-08
  871  3.31091e-08
  872  3.31054e-08
  873  3.31017e-08
  874  3.30980e-08
  875  3.30942e-08
  876  3.30905e-08
  877  3.30868e-08
  878  3.30831e-08
  879  3.30793e-08
  880  3.30756e-08
  881  3.30719e-08
  882  3.30681e-08
  883  3.30645e-08
  884  3.30607e-08
  885  3.30570e-08
  886  3.30532e-08
  887  3.30496e-08
  888  3.30458e-08
  889  3.30421e-08
  890  3.30383e-08
  891  3.30346e-08
  892  3.30309e-08
  893  3.30272e-08
  894  3.30235e-08
  895  3.30197e-08
  896  3.30160e-08
  897  3.30123e-08
  898  3.30086e-08
  899  3.30048e-08
  900  3.30011e-08
  901  3.29974e-08
  902  3.29938e-08
  903  3.29901e-08
  904  3.29865e-08
  905  3.29828e-08
  906  3.29792e-08
  907  3.29755e-08
  908  3.29718e-08
  909  3.29682e-08
  910  3.29645e-08
  911  3.29609e-08
  912  3.29573e-08
  913  3.29536e-08
  914  3.29499e-08
  915  3.29462e-08
  916  3.29426e-08
  917  3.29389e-08
  918  3.29353e-08
  919  3.29316e-08
  920  3.29279e-08
  921  3.29243e-08
  922  3.29206e-08
  923  3.29170e-08
  924  3.29133e-08
  925  3.29097e-08
  926  3.29060e-08
  927  3.29023e-08
  928  3.28986e-08
  929  3.28951e-08
  930  3.28913e-08
  931  3.28877e-08
  932  3.28840e-08
  933  3.28803e-08
  934  3.28768e-08
  935  3.28731e-08
  936  3.28694e-08
  937  3.28658e-08
  938  3.28621e-08
  939  3.28584e-08
  940  3.28548e-08
  941  3.28512e-08
  942  3.28474e-08
  943  3.28438e-08
  944  3.28402e-08
  945  3.28365e-08
  946  3.28328e-08
  947  3.28291e-08
  948  3.28255e-08
  949  3.28218e-08
  950  3.28182e-08
  951  3.28145e-08
  952  3.28109e-08
  953  3.28072e-08
  954  3.28036e-08
  955  3.27999e-08
  956  3.27963e-08
  957  3.27925e-08
  958  3.27889e-08
  959  3.27852e-08
  960  3.27816e-08
  961  3.27780e-08
  962  3.27743e-08
  963  3.27706e-08
  964  3.27670e-08
  965  3.27633e-08
  966  3.27597e-08
  967  3.27560e-08
  968  3.27524e-08
  969  3.27487e-08
  970  3.27450e-08
  971  3.27413e-08
  972  3.27376e-08
  973  3.27340e-08
  974  3.27303e-08
  975  3.27267e-08
  976  3.27231e-08
  977  3.27194e-08
  978  3.27157e-08
  979  3.27120e-08
  980  3.27084e-08
  981  3.27047e-08
  982  3.27010e-08
  983  3.26974e-08
  984  3.26937e-08
  985  3.26901e-08
  986  3.26864e-08
  987  3.26827e-08
  988  3.26791e-08
  989  3.26754e-08
  990  3.26718e-08
  991  3.26681e-08
  992  3.26645e-08
  993  3.26608e-08
  994  3.26571e-08
  995  3.26535e-08
  996  3.26498e-08
  997  3.26462e-08
  998  3.26425e-08
  999  3.26389e-08
 1000  3.26352e-08
 1001  3.26316e-08
 1002  3.26281e-08
 1003  3.26244e-08
 1004  3.26208e-08
 1005  3.26173e-08
 1006  3.26137e-08
 1007  3.26101e-08
 1008  3.26065e-08
 1009  3.26029e-08
 1010  3.25993e-08
 1011  3.25958e-08
 1012  3.25921e-08
 1013  3.25885e-08
 1014  3.25850e-08
 1015  3.25814e-08
 1016  3.25778e-08
 1017  3.25742e-08
 1018  3.25706e-08
 1019  3.25671e-08
 1020  3.25634e-08
 1021  3.25598e-08
 1022  3.25563e-08
 1023  3.25527e-08
 1024  3.25491e-08
 1025  3.25455e-08
 1026  3.25419e-08
 1027  3.25383e-08
 1028  3.25347e-08
 1029  3.25312e-08
 1030  3.25276e-08
 1031  3.25240e-08
 1032  3.25204e-08
 1033  3.25169e-08
 1034  3.25132e-08
 1035  3.25096e-08
 1036  3.25060e-08
 1037  3.25025e-08
 1038  3.24989e-08
 1039  3.24953e-08
 1040  3.24917e-08
 1041  3.24881e-08
 1042  3.24845e-08
 1043  3.24809e-08
 1044  3.24774e-08
 1045  3.24737e-08
 1046  3.24702e-08
 1047  3.24665e-08
