# alpha = 1.59, nu_ref = 147.90 GHz, nu_shift = 0.24 GHz
# solid angle = 221.88 nsr
    0  3.53137e-08
    1  3.53120e-08
    2  3.53103e-08
    3  3.53087e-08
    4  3.53069e-08
    5  3.53053e-08
    6  3.53035e-08
    7  3.53018e-08
    8  3.53002e-08
    9  3.52985e-08
   10  3.52968e-08
   11  3.52951e-08
   12  3.52934e-08
   13  3.52917e-08
   14  3.52900e-08
   15  3.52883e-08
   16  3.52866e-08
   17  3.52849e-08
   18  3.52832e-08
   19  3.52815e-08
   20  3.52799e-08
   21  3.52782e-08
   22  3.52764e-08
   23  3.52748e-08
   24  3.52731e-08
   25  3.52714e-08
   26  3.52697e-08
   27  3.52679e-08
   28  3.52663e-08
   29  3.52646e-08
   30  3.52629e-08
   31  3.52612e-08
   32  3.52595e-08
   33  3.52578e-08
   34  3.52561e-08
   35  3.52545e-08
   36  3.52527e-08
   37  3.52510e-08
   38  3.52494e-08
   39  3.52476e-08
   40  3.52459e-08
   41  3.52443e-08
   42  3.52425e-08
   43  3.52409e-08
   44  3.52393e-08
   45  3.52375e-08
   46  3.52358e-08
   47  3.52340e-08
   48  3.52324e-08
   49  3.52307e-08
   50  3.52289e-08
   51  3.52273e-08
   52  3.52257e-08
   53  3.52239e-08
   54  3.52222e-08
   55  3.52205e-08
   56  3.52188e-08
   57  3.52171e-08
   58  3.52154e-08
   59  3.52137e-08
   60  3.52121e-08
   61  3.52104e-08
   62  3.52086e-08
   63  3.52069e-08
   64  3.52053e-08
   65  3.52035e-08
   66  3.52018e-08
   67  3.52002e-08
   68  3.51985e-08
   69  3.51968e-08
   70  3.51951e-08
   71  3.51934e-08
   72  3.51917e-08
   73  3.51899e-08
   74  3.51883e-08
   75  3.51866e-08
   76  3.51849e-08
   77  3.51833e-08
   78  3.51815e-08
   79  3.51798e-08
   80  3.51781e-08
   81  3.51764e-08
   82  3.51747e-08
   83  3.51730e-08
   84  3.51714e-08
   85  3.51697e-08
   86  3.51680e-08
   87  3.51663e-08
   88  3.51645e-08
   89  3.51629e-08
   90  3.51612e-08
   91  3.51595e-08
   92  3.51578e-08
   93  3.51561e-08
   94  3.51544e-08
   95  3.51527e-08
   96  3.51510e-08
   97  3.51493e-08
   98  3.51476e-08
   99  3.51459e-08
  100  3.51443e-08
  101  3.51422e-08
  102  3.51403e-08
  103  3.51383e-08
  104  3.51364e-08
  105  3.51345e-08
  106  3.51325e-08
  107  3.51306e-08
  108  3.51287e-08
  109  3.51268e-08
  110  3.51248e-08
  111  3.51229e-08
  112  3.51209e-08
  113  3.51190e-08
  114  3.51170e-08
  115  3.51151e-08
  116  3.51132e-08
  117  3.51112e-08
  118  3.51093e-08
  119  3.51074e-08
  120  3.51054e-08
  121  3.51035e-08
  122  3.51015e-08
  123  3.50996e-08
  124  3.50977e-08
  125  3.50957e-08
  126  3.50938e-08
  127  3.50918e-08
  128  3.50899e-08
  129  3.50880e-08
  130  3.50860e-08
  131  3.50841e-08
  132  3.50821e-08
  133  3.50802e-08
  134  3.50782e-08
  135  3.50762e-08
  136  3.50744e-08
  137  3.50724e-08
  138  3.50705e-08
  139  3.50686e-08
  140  3.50666e-08
  141  3.50647e-08
  142  3.50627e-08
  143  3.50608e-08
  144  3.50588e-08
  145  3.50569e-08
  146  3.50550e-08
  147  3.50530e-08
  148  3.50511e-08
  149  3.50491e-08
  150  3.50472e-08
  151  3.50453e-08
  152  3.50433e-08
  153  3.50414e-08
  154  3.50394e-08
  155  3.50375e-08
  156  3.50355e-08
  157  3.50336e-08
  158  3.50316e-08
  159  3.50297e-08
  160  3.50278e-08
  161  3.50258e-08
  162  3.50239e-08
  163  3.50219e-08
  164  3.50200e-08
  165  3.50180e-08
  166  3.50162e-08
  167  3.50142e-08
  168  3.50123e-08
  169  3.50103e-08
  170  3.50084e-08
  171  3.50064e-08
  172  3.50045e-08
  173  3.50025e-08
  174  3.50006e-08
  175  3.49987e-08
  176  3.49967e-08
  177  3.49947e-08
  178  3.49928e-08
  179  3.49909e-08
  180  3.49890e-08
  181  3.49870e-08
  182  3.49850e-08
  183  3.49831e-08
  184  3.49812e-08
  185  3.49792e-08
  186  3.49773e-08
  187  3.49753e-08
  188  3.49734e-08
  189  3.49715e-08
  190  3.49695e-08
  191  3.49676e-08
  192  3.49656e-08
  193  3.49637e-08
  194  3.49617e-08
  195  3.49598e-08
  196  3.49578e-08
  197  3.49559e-08
  198  3.49540e-08
  199  3.49520e-08
  200  3.49501e-08
  201  3.49480e-08
  202  3.49458e-08
  203  3.49436e-08
  204  3.49415e-08
  205  3.49393e-08
  206  3.49371e-08
  207  3.49349e-08
  208  3.49328e-08
  209  3.49306e-08
  210  3.49285e-08
  211  3.49263e-08
  212  3.49242e-08
  213  3.49220e-08
  214  3.49199e-08
  215  3.49177e-08
  216  3.49156e-08
  217  3.49133e-08
  218  3.49113e-08
  219  3.49091e-08
  220  3.49069e-08
  221  3.49048e-08
  222  3.49026e-08
  223  3.49004e-08
  224  3.48982e-08
  225  3.48960e-08
  226  3.48939e-08
  227  3.48917e-08
  228  3.48896e-08
  229  3.48874e-08
  230  3.48853e-08
  231  3.48831e-08
  232  3.48810e-08
  233  3.48788e-08
  234  3.48767e-08
  235  3.48745e-08
  236  3.48724e-08
  237  3.48702e-08
  238  3.48681e-08
  239  3.48659e-08
  240  3.48637e-08
  241  3.48616e-08
  242  3.48594e-08
  243  3.48572e-08
  244  3.48550e-08
  245  3.48529e-08
  246  3.48507e-08
  247  3.48486e-08
  248  3.48464e-08
  249  3.48443e-08
  250  3.48421e-08
  251  3.48399e-08
  252  3.48378e-08
  253  3.48356e-08
  254  3.48335e-08
  255  3.48313e-08
  256  3.48292e-08
  257  3.48270e-08
  258  3.48248e-08
  259  3.48227e-08
  260  3.48205e-08
  261  3.48183e-08
  262  3.48162e-08
  263  3.48140e-08
  264  3.48119e-08
  265  3.48097e-08
  266  3.48075e-08
  267  3.48054e-08
  268  3.48033e-08
  269  3.48011e-08
  270  3.47990e-08
  271  3.47967e-08
  272  3.47947e-08
  273  3.47924e-08
  274  3.47903e-08
  275  3.47881e-08
  276  3.47859e-08
  277  3.47838e-08
  278  3.47816e-08
  279  3.47795e-08
  280  3.47773e-08
  281  3.47752e-08
  282  3.47730e-08
  283  3.47708e-08
  284  3.47686e-08
  285  3.47665e-08
  286  3.47643e-08
  287  3.47622e-08
  288  3.47600e-08
  289  3.47578e-08
  290  3.47557e-08
  291  3.47535e-08
  292  3.47514e-08
  293  3.47492e-08
  294  3.47470e-08
  295  3.47449e-08
  296  3.47427e-08
  297  3.47406e-08
  298  3.47384e-08
  299  3.47363e-08
  300  3.47341e-08
  301  3.47317e-08
  302  3.47294e-08
  303  3.47270e-08
  304  3.47247e-08
  305  3.47223e-08
  306  3.47199e-08
  307  3.47176e-08
  308  3.47152e-08
  309  3.47128e-08
  310  3.47105e-08
  311  3.47082e-08
  312  3.47059e-08
  313  3.47035e-08
  314  3.47011e-08
  315  3.46987e-08
  316  3.46964e-08
  317  3.46941e-08
  318  3.46917e-08
  319  3.46893e-08
  320  3.46869e-08
  321  3.46846e-08
  322  3.46822e-08
  323  3.46799e-08
  324  3.46776e-08
  325  3.46752e-08
  326  3.46729e-08
  327  3.46705e-08
  328  3.46682e-08
  329  3.46658e-08
  330  3.46635e-08
  331  3.46611e-08
  332  3.46587e-08
  333  3.46564e-08
  334  3.46541e-08
  335  3.46517e-08
  336  3.46493e-08
  337  3.46470e-08
  338  3.46446e-08
  339  3.46423e-08
  340  3.46399e-08
  341  3.46375e-08
  342  3.46352e-08
  343  3.46329e-08
  344  3.46305e-08
  345  3.46281e-08
  346  3.46258e-08
  347  3.46234e-08
  348  3.46211e-08
  349  3.46187e-08
  350  3.46163e-08
  351  3.46140e-08
  352  3.46116e-08
  353  3.46093e-08
  354  3.46069e-08
  355  3.46045e-08
  356  3.46022e-08
  357  3.45998e-08
  358  3.45975e-08
  359  3.45951e-08
  360  3.45928e-08
  361  3.45904e-08
  362  3.45881e-08
  363  3.45857e-08
  364  3.45833e-08
  365  3.45810e-08
  366  3.45787e-08
  367  3.45763e-08
  368  3.45740e-08
  369  3.45716e-08
  370  3.45692e-08
  371  3.45669e-08
  372  3.45646e-08
  373  3.45622e-08
  374  3.45598e-08
  375  3.45575e-08
  376  3.45551e-08
  377  3.45528e-08
  378  3.45504e-08
  379  3.45480e-08
  380  3.45457e-08
  381  3.45433e-08
  382  3.45410e-08
  383  3.45386e-08
  384  3.45363e-08
  385  3.45339e-08
  386  3.45316e-08
  387  3.45292e-08
  388  3.45268e-08
  389  3.45246e-08
  390  3.45222e-08
  391  3.45197e-08
  392  3.45174e-08
  393  3.45150e-08
  394  3.45127e-08
  395  3.45104e-08
  396  3.45080e-08
  397  3.45057e-08
  398  3.45033e-08
  399  3.45010e-08
  400  3.44986e-08
  401  3.44961e-08
  402  3.44935e-08
  403  3.44910e-08
  404  3.44885e-08
  405  3.44860e-08
  406  3.44835e-08
  407  3.44809e-08
  408  3.44784e-08
  409  3.44759e-08
  410  3.44734e-08
  411  3.44709e-08
  412  3.44684e-08
  413  3.44658e-08
  414  3.44634e-08
  415  3.44608e-08
  416  3.44583e-08
  417  3.44558e-08
  418  3.44532e-08
  419  3.44507e-08
  420  3.44482e-08
  421  3.44458e-08
  422  3.44431e-08
  423  3.44406e-08
  424  3.44382e-08
  425  3.44356e-08
  426  3.44332e-08
  427  3.44306e-08
  428  3.44280e-08
  429  3.44256e-08
  430  3.44230e-08
  431  3.44205e-08
  432  3.44180e-08
  433  3.44154e-08
  434  3.44129e-08
  435  3.44104e-08
  436  3.44079e-08
  437  3.44054e-08
  438  3.44029e-08
  439  3.44004e-08
  440  3.43978e-08
  441  3.43953e-08
  442  3.43928e-08
  443  3.43902e-08
  444  3.43877e-08
  445  3.43852e-08
  446  3.43827e-08
  447  3.43802e-08
  448  3.43777e-08
  449  3.43751e-08
  450  3.43727e-08
  451  3.43701e-08
  452  3.43676e-08
  453  3.43650e-08
  454  3.43626e-08
  455  3.43601e-08
  456  3.43575e-08
  457  3.43550e-08
  458  3.43525e-08
  459  3.43500e-08
  460  3.43474e-08
  461  3.43449e-08
  462  3.43424e-08
  463  3.43399e-08
  464  3.43374e-08
  465  3.43348e-08
  466  3.43323e-08
  467  3.43298e-08
  468  3.43273e-08
  469  3.43248e-08
  470  3.43222e-08
  471  3.43197e-08
  472  3.43172e-08
  473  3.43147e-08
  474  3.43122e-08
  475  3.43096e-08
  476  3.43071e-08
  477  3.43046e-08
  478  3.43021e-08
  479  3.42996e-08
  480  3.42970e-08
  481  3.42945e-08
  482  3.42920e-08
  483  3.42895e-08
  484  3.42869e-08
  485  3.42844e-08
  486  3.42819e-08
  487  3.42794e-08
  488  3.42769e-08
  489  3.42743e-08
  490  3.42718e-08
  491  3.42693e-08
  492  3.42668e-08
  493  3.42643e-08
  494  3.42617e-08
  495  3.42592e-08
  496  3.42567e-08
  497  3.42542e-08
  498  3.42517e-08
  499  3.42491e-08
  500  3.42466e-08
  501  3.42440e-08
  502  3.42414e-08
  503  3.42387e-08
  504  3.42360e-08
  505  3.42333e-08
  506  3.42307e-08
  507  3.42281e-08
  508  3.42254e-08
  509  3.42228e-08
  510  3.42201e-08
  511  3.42175e-08
  512  3.42147e-08
  513  3.42122e-08
  514  3.42095e-08
  515  3.42068e-08
  516  3.42042e-08
  517  3.42016e-08
  518  3.41989e-08
  519  3.41963e-08
  520  3.41936e-08
  521  3.41910e-08
  522  3.41883e-08
  523  3.41857e-08
  524  3.41831e-08
  525  3.41804e-08
  526  3.41778e-08
  527  3.41751e-08
  528  3.41725e-08
  529  3.41698e-08
  530  3.41671e-08
  531  3.41645e-08
  532  3.41618e-08
  533  3.41592e-08
  534  3.41566e-08
  535  3.41539e-08
  536  3.41512e-08
  537  3.41486e-08
  538  3.41459e-08
  539  3.41433e-08
  540  3.41406e-08
  541  3.41380e-08
  542  3.41353e-08
  543  3.41327e-08
  544  3.41300e-08
  545  3.41273e-08
  546  3.41247e-08
  547  3.41221e-08
  548  3.41194e-08
  549  3.41167e-08
  550  3.41141e-08
  551  3.41114e-08
  552  3.41089e-08
  553  3.41062e-08
  554  3.41036e-08
  555  3.41009e-08
  556  3.40982e-08
  557  3.40956e-08
  558  3.40929e-08
  559  3.40903e-08
  560  3.40876e-08
  561  3.40850e-08
  562  3.40823e-08
  563  3.40796e-08
  564  3.40770e-08
  565  3.40743e-08
  566  3.40717e-08
  567  3.40691e-08
  568  3.40664e-08
  569  3.40637e-08
  570  3.40611e-08
  571  3.40584e-08
  572  3.40558e-08
  573  3.40532e-08
  574  3.40505e-08
  575  3.40479e-08
  576  3.40452e-08
  577  3.40425e-08
  578  3.40398e-08
  579  3.40373e-08
  580  3.40346e-08
  581  3.40320e-08
  582  3.40293e-08
  583  3.40267e-08
  584  3.40240e-08
  585  3.40213e-08
  586  3.40187e-08
  587  3.40161e-08
  588  3.40134e-08
  589  3.40107e-08
  590  3.40081e-08
  591  3.40054e-08
  592  3.40028e-08
  593  3.40002e-08
  594  3.39975e-08
  595  3.39948e-08
  596  3.39922e-08
  597  3.39895e-08
  598  3.39869e-08
  599  3.39842e-08
  600  3.39815e-08
  601  3.39789e-08
  602  3.39761e-08
  603  3.39733e-08
  604  3.39706e-08
  605  3.39679e-08
  606  3.39651e-08
  607  3.39623e-08
  608  3.39596e-08
  609  3.39568e-08
  610  3.39541e-08
  611  3.39514e-08
  612  3.39486e-08
  613  3.39458e-08
  614  3.39431e-08
  615  3.39404e-08
  616  3.39375e-08
  617  3.39348e-08
  618  3.39321e-08
  619  3.39293e-08
  620  3.39266e-08
  621  3.39238e-08
  622  3.39211e-08
  623  3.39184e-08
  624  3.39156e-08
  625  3.39128e-08
  626  3.39101e-08
  627  3.39073e-08
  628  3.39046e-08
  629  3.39019e-08
  630  3.38991e-08
  631  3.38964e-08
  632  3.38936e-08
  633  3.38908e-08
  634  3.38880e-08
  635  3.38854e-08
  636  3.38826e-08
  637  3.38798e-08
  638  3.38771e-08
  639  3.38744e-08
  640  3.38716e-08
  641  3.38688e-08
  642  3.38661e-08
  643  3.38633e-08
  644  3.38606e-08
  645  3.38578e-08
  646  3.38551e-08
  647  3.38523e-08
  648  3.38496e-08
  649  3.38468e-08
  650  3.38441e-08
  651  3.38413e-08
  652  3.38386e-08
  653  3.38358e-08
  654  3.38331e-08
  655  3.38303e-08
  656  3.38276e-08
  657  3.38249e-08
  658  3.38221e-08
  659  3.38193e-08
  660  3.38166e-08
  661  3.38138e-08
  662  3.38111e-08
  663  3.38083e-08
  664  3.38056e-08
  665  3.38029e-08
  666  3.38001e-08
  667  3.37974e-08
  668  3.37946e-08
  669  3.37918e-08
  670  3.37891e-08
  671  3.37864e-08
  672  3.37836e-08
  673  3.37808e-08
  674  3.37781e-08
  675  3.37753e-08
  676  3.37726e-08
  677  3.37698e-08
  678  3.37670e-08
  679  3.37643e-08
  680  3.37616e-08
  681  3.37588e-08
  682  3.37561e-08
  683  3.37533e-08
  684  3.37506e-08
  685  3.37478e-08
  686  3.37450e-08
  687  3.37423e-08
  688  3.37396e-08
  689  3.37368e-08
  690  3.37341e-08
  691  3.37313e-08
  692  3.37286e-08
  693  3.37258e-08
  694  3.37230e-08
  695  3.37203e-08
  696  3.37175e-08
  697  3.37148e-08
  698  3.37121e-08
  699  3.37093e-08
  700  3.37065e-08
  701  3.37038e-08
  702  3.37009e-08
  703  3.36981e-08
  704  3.36953e-08
  705  3.36924e-08
  706  3.36897e-08
  707  3.36868e-08
  708  3.36840e-08
  709  3.36811e-08
  710  3.36783e-08
  711  3.36755e-08
  712  3.36727e-08
  713  3.36699e-08
  714  3.36671e-08
  715  3.36642e-08
  716  3.36615e-08
  717  3.36586e-08
  718  3.36558e-08
  719  3.36530e-08
  720  3.36501e-08
  721  3.36473e-08
  722  3.36445e-08
  723  3.36417e-08
  724  3.36388e-08
  725  3.36361e-08
  726  3.36332e-08
  727  3.36304e-08
  728  3.36276e-08
  729  3.36248e-08
  730  3.36220e-08
  731  3.36191e-08
  732  3.36163e-08
  733  3.36135e-08
  734  3.36106e-08
  735  3.36078e-08
  736  3.36051e-08
  737  3.36022e-08
  738  3.35994e-08
  739  3.35966e-08
  740  3.35937e-08
  741  3.35909e-08
  742  3.35881e-08
  743  3.35853e-08
  744  3.35825e-08
  745  3.35796e-08
  746  3.35768e-08
  747  3.35741e-08
  748  3.35712e-08
  749  3.35684e-08
  750  3.35655e-08
  751  3.35627e-08
  752  3.35600e-08
  753  3.35572e-08
  754  3.35542e-08
  755  3.35514e-08
  756  3.35486e-08
  757  3.35458e-08
  758  3.35430e-08
  759  3.35401e-08
  760  3.35373e-08
  761  3.35345e-08
  762  3.35317e-08
  763  3.35289e-08
  764  3.35261e-08
  765  3.35232e-08
  766  3.35204e-08
  767  3.35176e-08
  768  3.35148e-08
  769  3.35120e-08
  770  3.35091e-08
  771  3.35063e-08
  772  3.35036e-08
  773  3.35006e-08
  774  3.34978e-08
  775  3.34950e-08
  776  3.34922e-08
  777  3.34894e-08
  778  3.34866e-08
  779  3.34837e-08
  780  3.34809e-08
  781  3.34780e-08
  782  3.34753e-08
  783  3.34725e-08
  784  3.34697e-08
  785  3.34669e-08
  786  3.34640e-08
  787  3.34611e-08
  788  3.34584e-08
  789  3.34556e-08
  790  3.34527e-08
  791  3.34499e-08
  792  3.34470e-08
  793  3.34443e-08
  794  3.34414e-08
  795  3.34386e-08
  796  3.34358e-08
  797  3.34330e-08
  798  3.34301e-08
  799  3.34273e-08
  800  3.34245e-08
  801  3.34216e-08
  802  3.34187e-08
  803  3.34158e-08
  804  3.34130e-08
  805  3.34102e-08
  806  3.34073e-08
  807  3.34043e-08
  808  3.34015e-08
  809  3.33986e-08
  810  3.33959e-08
  811  3.33930e-08
  812  3.33901e-08
  813  3.33872e-08
  814  3.33843e-08
  815  3.33815e-08
  816  3.33786e-08
  817  3.33758e-08
  818  3.33728e-08
  819  3.33700e-08
  820  3.33671e-08
  821  3.33642e-08
  822  3.33614e-08
  823  3.33586e-08
  824  3.33556e-08
  825  3.33528e-08
  826  3.33499e-08
  827  3.33470e-08
  828  3.33442e-08
  829  3.33413e-08
  830  3.33384e-08
  831  3.33356e-08
  832  3.33327e-08
  833  3.33298e-08
  834  3.33269e-08
  835  3.33241e-08
  836  3.33213e-08
  837  3.33184e-08
  838  3.33155e-08
  839  3.33126e-08
  840  3.33098e-08
  841  3.33069e-08
  842  3.33040e-08
  843  3.33011e-08
  844  3.32983e-08
  845  3.32954e-08
  846  3.32925e-08
  847  3.32897e-08
  848  3.32869e-08
  849  3.32839e-08
  850  3.32811e-08
  851  3.32782e-08
  852  3.32754e-08
  853  3.32724e-08
  854  3.32696e-08
  855  3.32667e-08
  856  3.32638e-08
  857  3.32610e-08
  858  3.32581e-08
  859  3.32552e-08
  860  3.32523e-08
  861  3.32495e-08
  862  3.32466e-08
  863  3.32437e-08
  864  3.32409e-08
  865  3.32380e-08
  866  3.32352e-08
  867  3.32323e-08
  868  3.32295e-08
  869  3.32266e-08
  870  3.32237e-08
  871  3.32209e-08
  872  3.32180e-08
  873  3.32151e-08
  874  3.32122e-08
  875  3.32093e-08
  876  3.32065e-08
  877  3.32035e-08
  878  3.32007e-08
  879  3.31979e-08
  880  3.31950e-08
  881  3.31921e-08
  882  3.31893e-08
  883  3.31863e-08
  884  3.31835e-08
  885  3.31807e-08
  886  3.31778e-08
  887  3.31749e-08
  888  3.31721e-08
  889  3.31691e-08
  890  3.31663e-08
  891  3.31634e-08
  892  3.31606e-08
  893  3.31577e-08
  894  3.31548e-08
  895  3.31519e-08
  896  3.31491e-08
  897  3.31462e-08
  898  3.31433e-08
  899  3.31405e-08
  900  3.31376e-08
  901  3.31347e-08
  902  3.31318e-08
  903  3.31289e-08
  904  3.31260e-08
  905  3.31231e-08
  906  3.31202e-08
  907  3.31173e-08
  908  3.31144e-08
  909  3.31115e-08
  910  3.31085e-08
  911  3.31057e-08
  912  3.31028e-08
  913  3.30999e-08
  914  3.30970e-08
  915  3.30941e-08
  916  3.30912e-08
  917  3.30883e-08
  918  3.30854e-08
  919  3.30826e-08
  920  3.30796e-08
  921  3.30767e-08
  922  3.30738e-08
  923  3.30709e-08
  924  3.30680e-08
  925  3.30651e-08
  926  3.30622e-08
  927  3.30593e-08
  928  3.30565e-08
  929  3.30535e-08
  930  3.30506e-08
  931  3.30477e-08
  932  3.30449e-08
  933  3.30420e-08
  934  3.30390e-08
  935  3.30361e-08
  936  3.30332e-08
  937  3.30304e-08
  938  3.30275e-08
  939  3.30246e-08
  940  3.30216e-08
  941  3.30187e-08
  942  3.30158e-08
  943  3.30129e-08
  944  3.30100e-08
  945  3.30072e-08
  946  3.30043e-08
  947  3.30013e-08
  948  3.29984e-08
  949  3.29956e-08
  950  3.29926e-08
  951  3.29897e-08
  952  3.29868e-08
  953  3.29839e-08
  954  3.29811e-08
  955  3.29781e-08
  956  3.29753e-08
  957  3.29723e-08
  958  3.29695e-08
  959  3.29666e-08
  960  3.29636e-08
  961  3.29607e-08
  962  3.29579e-08
  963  3.29550e-08
  964  3.29520e-08
  965  3.29492e-08
  966  3.29462e-08
  967  3.29433e-08
  968  3.29404e-08
  969  3.29376e-08
  970  3.29346e-08
  971  3.29317e-08
  972  3.29289e-08
  973  3.29259e-08
  974  3.29230e-08
  975  3.29201e-08
  976  3.29172e-08
  977  3.29143e-08
  978  3.29114e-08
  979  3.29085e-08
  980  3.29057e-08
  981  3.29028e-08
  982  3.28999e-08
  983  3.28969e-08
  984  3.28940e-08
  985  3.28911e-08
  986  3.28882e-08
  987  3.28853e-08
  988  3.28824e-08
  989  3.28796e-08
  990  3.28766e-08
  991  3.28737e-08
  992  3.28708e-08
  993  3.28680e-08
  994  3.28650e-08
  995  3.28621e-08
  996  3.28592e-08
  997  3.28563e-08
  998  3.28534e-08
  999  3.28505e-08
 1000  3.28476e-08
 1001  3.28447e-08
 1002  3.28418e-08
 1003  3.28389e-08
 1004  3.28360e-08
 1005  3.28330e-08
 1006  3.28301e-08
 1007  3.28272e-08
 1008  3.28244e-08
 1009  3.28214e-08
 1010  3.28185e-08
 1011  3.28155e-08
 1012  3.28125e-08
 1013  3.28097e-08
 1014  3.28068e-08
 1015  3.28039e-08
 1016  3.28009e-08
 1017  3.27980e-08
 1018  3.27951e-08
 1019  3.27922e-08
 1020  3.27892e-08
 1021  3.27863e-08
 1022  3.27835e-08
 1023  3.27805e-08
 1024  3.27776e-08
 1025  3.27746e-08
 1026  3.27718e-08
 1027  3.27688e-08
 1028  3.27659e-08
 1029  3.27630e-08
 1030  3.27601e-08
 1031  3.27572e-08
 1032  3.27542e-08
 1033  3.27513e-08
 1034  3.27484e-08
 1035  3.27455e-08
 1036  3.27426e-08
 1037  3.27397e-08
 1038  3.27367e-08
 1039  3.27338e-08
 1040  3.27309e-08
 1041  3.27280e-08
 1042  3.27250e-08
 1043  3.27222e-08
 1044  3.27192e-08
 1045  3.27163e-08
 1046  3.27134e-08
 1047  3.27104e-08
